# Rows are theta(deg) running from 0 to 180
# MF_1 E-cut power         MF_1 H-cut power        MF_2 E-cut power          MF_2 H-cut power 
1.000000000000000000e+00 1.000000000000000000e+00 1.000000000000000000e+00 1.000000000000000000e+00
9.979294710159550830e-01 9.986779204067465221e-01 9.954442949162466414e-01 9.965174162049528217e-01
9.917470508238751536e-01 9.947329462011247347e-01 9.818870297472847009e-01 9.861864525552228589e-01
9.815260977462444414e-01 9.881981881523693723e-01 9.596665238929871222e-01 9.692111605880335823e-01
9.673872907090346196e-01 9.791282460258303733e-01 9.293320710938485218e-01 9.459239522449548465e-01
9.494963117322643420e-01 9.675984097912790904e-01 8.916227543785135712e-01 9.167751071654828277e-01
9.280606886784842358e-01 9.537035658566007656e-01 8.474393343710607818e-01 8.823187372487024671e-01
9.033258818634503085e-01 9.375568315290914168e-01 7.978106408708646180e-01 8.431958082348417483e-01
8.755707170196522782e-01 9.192879463789334071e-01 7.438561443206079815e-01 8.001149311181753321e-01
8.451022825325327226e-01 8.990414538488923357e-01 6.867465263349801230e-01 7.538317112807055853e-01
8.122504203806061307e-01 8.769747102029538111e-01 6.276641010779758778e-01 7.051274773574589538e-01
7.773619475038636706e-01 8.532557606489877822e-01 5.677648640809298541e-01 6.547882046134678724e-01
7.407947472682102630e-01 8.280611241551760759e-01 5.081437716748613553e-01 6.035844011448828761e-01
7.029118693250312466e-01 8.015735290910057653e-01 4.498045985509343536e-01 5.522526438926421699e-01
6.640757706843355423e-01 7.739796413797649377e-01 3.936354038977184500e-01 5.014793415238327778e-01
6.246428215752345414e-01 7.454678254023081596e-01 3.403902819314536532e-01 4.518871702966004711e-01
5.849581871340924222e-01 7.162259755227863289e-01 2.906777052901372560e-01 4.040244854598132873e-01
5.453511807154964863e-01 6.864394529228855513e-01 2.449554136400629023e-01 3.583578631098155998e-01
5.061311673143190637e-01 6.562891585595469479e-01 2.035314762424829116e-01 3.152677839064224052e-01
4.675840769105649164e-01 6.259497686447617060e-01 1.665708834369057922e-01 2.750473379250569228e-01
4.299695682059498925e-01 5.955881542368829384e-01 1.341068103633782371e-01 2.379037151946699902e-01
3.935188638970026909e-01 5.653620014861793219e-01 1.060555537218734468e-01 2.039621535895963789e-01
3.584332599639232786e-01 5.354186439466361858e-01 8.223407053399245381e-02 1.732719474614272115e-01
3.248832940187001972e-01 5.058941132967398335e-01 6.237904338585772285e-02 1.458140777654942100e-01
2.930085420350741487e-01 4.769124099385201876e-01 4.616645200889196721e-02 1.215100069159292806e-01
2.629179991618769141e-01 4.485849903844431052e-01 3.323073570099378815e-02 1.002311872701430601e-01
2.346909890777615082e-01 4.210104641958995475e-01 2.318277244081971833e-02 8.180885797153381045e-02
2.083785376474273088e-01 3.942744895840599173e-01 1.562606522841743228e-02 6.604374705972253234e-02
1.840051405483336677e-01 3.684498536817084613e-01 1.017070108067152576e-02 5.271535003572672823e-02
1.615708510139992338e-01 3.435967209793710508e-01 6.444821266465053898e-03 4.159051806564194320e-02
1.410536127579615218e-01 3.197630315059628581e-01 4.103502679185187449e-03 3.243115450412230316e-02
1.224117642989264038e-01 2.969850290189215425e-01 2.835091900522040270e-03 2.500088360114627317e-02
1.055866440405694162e-01 2.752878987297977531e-01 2.365150189767606902e-03 1.907061688056132034e-02
9.050523026379149460e-02 2.546864938916570398e-01 2.458256489874445505e-03 1.442299819176395478e-02
7.708275633370906266e-02 2.351861308654863703e-01 2.917975995745004415e-03 1.085575601733648060e-02
6.522524856612574307e-02 2.167834330057655245e-01 3.585335227507144892e-03 8.184030178621563845e-03
5.483194200072394331e-02 1.994672047955708682e-01 4.336153735403008164e-03 6.241769201678999332e-03
4.579753746924459384e-02 1.832193190509267822e-01 5.077571410089850440e-03 4.882314457226874863e-03
3.801427153186193869e-02 1.680156016331174895e-01 5.744083335633772165e-03 3.978298413639058673e-03
3.137377882419464109e-02 1.538266998887241610e-01 6.293355817133974676e-03 3.420987937387238911e-03
2.576873389155018984e-02 1.406189229157382148e-01 6.702052070445734325e-03 3.119200765086379157e-03
2.109426651018224408e-02 1.283550436710497178e-01 6.961848056989022523e-03 2.997915394645616401e-03
1.724915067587568657e-02 1.169950548369323023e-01 7.075771431558046040e-03 2.996683053452271241e-03
1.413677278957886120e-02 1.064968722061641893e-01 7.054952168632394258e-03 3.067936385409719170e-03
1.166588904000702767e-02 9.681698108904858435e-02 6.915834016449146776e-03 3.175274214177178228e-03
9.751185562540103796e-03 8.791102286071382499e-02 6.677862657479496748e-03 3.291786176398941131e-03
8.313657662292891007e-03 7.973432023113244393e-02 6.361639853546095444e-03 3.398465974752270472e-03
7.280826273028514518e-03 7.224234111818945980e-02 5.987512920365826476e-03 3.482748079064598105e-03
6.586810949190022822e-03 6.539110212742531292e-02 5.574555199044685383e-03 3.537190319354504165e-03
6.172279137176065779e-03 5.913751358833355815e-02 5.139885074201665065e-03 3.558314211975435390e-03
5.984291335106288294e-03 5.343966886912407399e-02 4.698267660206085876e-03 3.545606137545425328e-03
5.976061123481341865e-03 4.825708129670337049e-02 4.261943594033733469e-03 3.500675626962803690e-03
6.106648028631988384e-03 4.355087245685121400e-02 3.840632495888385983e-03 3.426561899335827874e-03
6.340599859971650029e-03 3.928391595421971277e-02 3.441663711914456827e-03 3.327176259905602080e-03
6.647559628276172340e-03 3.542094088777781452e-02 3.070193166659068197e-03 3.206865795309612154e-03
7.001850485061025635e-03 3.192859936054817660e-02 2.729471883542182366e-03 3.070082768464331684e-03
7.382050392784928090e-03 2.877550230927560654e-02 2.421138472230605510e-03 2.921143985726817188e-03
7.770566502093784536e-03 2.593222782620028394e-02 2.145514257693278450e-03 2.764064966458439857e-03
8.153217525187297227e-03 2.337130596696886109e-02 1.901885483113966878e-03 2.602454791927797783e-03
8.518830792916163089e-03 2.106718381054660527e-02 1.688762008611510062e-03 2.439458874946510460e-03
8.858859196927184806e-03 1.899617427223789998e-02 1.504106086252563965e-03 2.277738430496807111e-03
9.167021867624117540e-03 1.713639188164080979e-02 1.345528121531758313e-03 2.119477026353140409e-03
9.438971236492479239e-03 1.546767843414668595e-02 1.210448882245978132e-03 1.966406163962825492e-03
9.671988083131681513e-03 1.397152111652531607e-02 1.096229468485437506e-03 1.819843320826129793e-03
9.864705273083107864e-03 1.263096540179688837e-02 1.000271610556134139e-03 1.680737234723792559e-03
1.001686014752076540e-02 1.143052471214522046e-02 9.200916195743790490e-04 1.549716403411788594e-03
1.012907492180009986e-02 1.035608856588893234e-02 8.533716808666232936e-04 1.427137800901042732e-03
1.020266397585634609e-02 9.394830659113754742e-03 7.979922482122779603e-04 1.313133673864432752e-03
1.023946656291582075e-02 8.535118086986788824e-03 7.520491513381214735e-04 1.207654987398456246e-03
1.024170321036977672e-02 7.766422685605994976e-03 7.138587410229236272e-04 1.110510651693769144e-03
1.021185392408775067e-02 7.079235273241745764e-03 6.819540235677583372e-04 1.021402096453291782e-03
1.015255622122276241e-02 6.464983390098951073e-03 6.550743244107774940e-04 9.399530857170338306e-04
1.006652099358158400e-02 5.915952977820871511e-03 6.321506029956427269e-04 8.657348997090616493e-04
9.956464231683111871e-03 5.425214302994996532e-03 6.122881413640005868e-04 7.982871691443621000e-04
9.825052707561907420e-03 4.986552311721435989e-03 5.947479627840903706e-04 7.371347464111771899e-04
9.674861812256647237e-03 4.594401503455606758e-03 5.789280128975219557e-04 6.818010506960099984e-04
9.508343863063329834e-03 4.243785330286551499e-03 5.643448581589809859e-04 6.318183420573624974e-04
9.327805328594894127e-03 3.930260060939217738e-03 5.506164248709611957e-04 5.867353723910457468e-04
9.135391560236398589e-03 3.649862995450716026e-03 5.374461144619425458e-04 5.461228370790299118e-04
8.933077761620234966e-03 3.399064875055524387e-03 5.246084828185230932e-04 5.095770161546936752e-04
8.722665069198312984e-03 3.174726300772758806e-03 5.119365585985113584e-04 4.767219528949986841e-04
8.505780753721037951e-03 2.974057952056270628e-03 4.993107923516829517e-04 4.472104744839131203e-04
8.283881682116906245e-03 2.794584382289645817e-03 4.866495698603733760e-04 4.207243163835634237e-04
8.058260300272256094e-03 2.634111159639719157e-03 4.739011846175315910e-04 3.969735710779515926e-04
7.830052508494654909e-03 2.490695118706827589e-03 4.610371415023536957e-04 3.756956440474527935e-04
7.600246902444035037e-03 2.362617489527673188e-03 4.480466527680873178e-04 3.566538658218807866e-04
7.369694942858110581e-03 2.248359674922904578e-03 4.349321852721251859e-04 3.396358790074067622e-04
7.139121697609379993e-03 2.146581454173030184e-03 4.217059218593489228e-04 3.244518932869431280e-04
6.909136869862090094e-03 2.056101399901336720e-03 4.083870078670401543e-04 3.109328793745644694e-04
6.680245886863598638e-03 1.975879305287443592e-03 3.949994642159172157e-04 2.989287544710353514e-04
6.452860875827811683e-03 1.905000429870931612e-03 3.815706602337022579e-04 2.883065965666033550e-04
6.227311397134990822e-03 1.842661383852446568e-03 3.681302512944659633e-04 2.789489125933384086e-04
6.003854841396785887e-03 1.788157482657218083e-03 3.547094978802046018e-04 2.707519755695016032e-04
5.782686426533577978e-03 1.740871415354627817e-03 3.413408933210582206e-04 2.636242381520687125e-04
5.563948754579830895e-03 1.700263082146836894e-03 3.280580369510088172e-04 2.574848241027659986e-04
5.347740906135690052e-03 1.665860467418151403e-03 3.148956975556787869e-04 2.522620948001037529e-04
5.134127063840964247e-03 1.637251425686070969e-03 3.018900187118495320e-04 2.478922848598907121e-04
4.923144665535949226e-03 1.614076268162453493e-03 2.890788229201914756e-04 2.443181989674261811e-04
4.714812093420051725e-03 1.596021047496821565e-03 2.765019753642347601e-04 2.414879610249187430e-04
4.509135908007014248e-03 1.582811447636049695e-03 2.642017707847199993e-04 2.393538065643984511e-04
4.306117635446349984e-03 1.574207194619860152e-03 2.522233084722096228e-04 2.378709099895447068e-04
4.105760114243009982e-03 1.569996912578780273e-03 2.406148209211390063e-04 2.369962395375967406e-04
3.908073402941940853e-03 1.569993357263543181e-03 2.294279214612503584e-04 2.366874348652021898e-04
3.713080244314670170e-03 1.574028967173391825e-03 2.187177354335928764e-04 2.369017048447422786e-04
3.520821074343384247e-03 1.581951679832500034e-03 2.085428784982702602e-04 2.375947465031129488e-04
3.331358556196649476e-03 1.593620968059029225e-03 1.989652447887016549e-04 2.387196900339224465e-04
3.144781610788004080e-03 1.608904058248501051e-03 1.900495672524163404e-04 2.402260794463720209e-04
2.961208906776076864e-03 1.627672299818760894e-03 1.818627130826994164e-04 2.420589036375105411e-04
2.780791764393759132e-03 1.649797662095917744e-03 1.744726791369606773e-04 2.441576984131986938e-04
2.603716419698256460e-03 1.675149342108772643e-03 1.679472561807952694e-04 2.464557461157316142e-04
2.430205589150710374e-03 1.703590474038730413e-03 1.623523372333693696e-04 2.488794058639335260e-04
2.260519269324123229e-03 1.734974938462537520e-03 1.577498547515835282e-04 2.513476137267297737e-04
2.094954703477362300e-03 1.769144277025205131e-03 1.541953443598592687e-04 2.537715981077336082e-04
1.933845446207901149e-03 1.805924725766705182e-03 1.517351496924653831e-04 2.560548608048048491e-04
1.777559459886537225e-03 1.845124387947688150e-03 1.504033038881355381e-04 2.580934781263878033e-04
1.626496182545526283e-03 1.886530574797337092e-03 1.502181483523390437e-04 2.597767785141454847e-04
1.481082516754844746e-03 1.929907350029400883e-03 1.511787782606042313e-04 2.609884526863791342e-04
1.341767703132554787e-03 1.974993321096388168e-03 1.532614362061328144e-04 2.616081486784984744e-04
1.209017060751238623e-03 2.021499726799380180e-03 1.564160092212650425e-04 2.615135965996003985e-04
1.083304599955872954e-03 2.069108876829537421e-03 1.605628184246350818e-04 2.605832957658731595e-04
9.651045409719523956e-04 2.117473003846692854e-03 1.655899225047307839e-04 2.586997795219181905e-04
8.548818039419520077e-04 2.166213592528169925e-03 1.713511833323513411e-04 2.557534500971376233e-04
7.530815722452462602e-04 2.214921252357048356e-03 1.776653608883818419e-04 2.516469470932909550e-04
6.601180704496790877e-04 2.263156201455957927e-03 1.843165117151998513e-04 2.462999788302601260e-04
5.763627400621112789e-04 2.310449427200739637e-03 1.910559563902392813e-04 2.396545063945601886e-04
5.021320391643623688e-04 2.356304585365954531e-03 1.976060533270187364e-04 2.316801269643214663e-04
4.376751345384420188e-04 2.400200692882335177e-03 2.036659652500838913e-04 2.223794575424595742e-04
3.831617952389044309e-04 2.441595659686440420e-03 2.089195285894928245e-04 2.117932749671669790e-04
3.386708327731971979e-04 2.479930692433971687e-03 2.130452338112991020e-04 2.000051259703787749e-04
3.041794629382379989e-04 2.514635586929371298e-03 2.157281972469742254e-04 1.871450856877130537e-04
2.795539856666849751e-04 2.545134906988896859e-03 2.166738555688266319e-04 1.733923184178707340e-04
2.645421896775911139e-04 2.570855025219062010e-03 2.156229486743736800e-04 1.589760848855753387e-04
2.587678861198403979e-04 2.591231976103824768e-03 2.123671843291027980e-04 1.441748500783134924e-04
2.617279577808255260e-04 2.605720044254869038e-03 2.067648103354482526e-04 1.293131788496315973e-04
2.727922762052326219e-04 2.613800981252427293e-03 1.987551717053074468e-04 1.147561660910671527e-04
2.912067871311047247e-04 2.614993713920141238e-03 1.883712176897558727e-04 1.009012363258401110e-04
3.160999945496200379e-04 2.608864376036125650e-03 1.757488637906715978e-04 8.816726432650810784e-05
3.464929857562164565e-04 2.595036465436773541e-03 1.611321236845086814e-04 7.698111192171511446e-05
3.813130351986674261e-04 2.573200900417287485e-03 1.448730196208259128e-04 6.776184214522420590e-05
4.194107059286284302e-04 2.543125724573708137e-03 1.274254672967335830e-04 6.090305317639489702e-05
4.595802372259924452e-04 2.504665189143548583e-03 1.093326161087501615e-04 5.675396124831165131e-05
5.005828696908372084e-04 2.457767927879432601e-03 9.120750354517674283e-05 5.560004143948981596e-05
5.411726199208437456e-04 2.402483932892609478e-03 7.370733924120936051e-05 5.764419356224748060e-05
5.801238817485780035e-04 2.338970041985765670e-03 5.750224553977317159e-05 6.298952153472560584e-05
6.162601064389832631e-04 2.267493659835671978e-03 4.323981291283914539e-05 7.162488287723994807e-05
6.484827071156705177e-04 2.188434457815312522e-03 3.150733727653831737e-05 8.341436575694852987e-05
6.757992498781218143e-04 2.102283830764145340e-03 2.279404303115344481e-05 9.809177255065638836e-05
6.973499421156555567e-04 2.009641933735433969e-03 1.745590935332065233e-05 1.152610238105020521e-04
7.124314131776944472e-04 1.911212177324889605e-03 1.568585935818301945e-05 1.344031432742920688e-04
7.205168084092262093e-04 1.807793125774437770e-03 1.749200201438543841e-05 1.548901487230185765e-04
7.212712876134651620e-04 1.700267816277911464e-03 2.268630893347557519e-05 1.760057684705864202e-04
7.145621343379323460e-04 1.589590598894611304e-03 3.088555542796034536e-05 1.969724504958678341e-04
7.004628418526016300e-04 1.476771681795791685e-03 4.152557389561397353e-05 2.169836595075103904e-04
6.792507417488598742e-04 1.362859653364909603e-03 5.388889940335924665e-05 2.352400013265597430e-04
6.513979757118604393e-04 1.248922337706980619e-03 6.714479905585966652e-05 2.509873123109742699e-04
6.175558717844707767e-04 1.136026419888710006e-03 8.039955671314338588e-05 2.635545432158862720e-04
5.785330627599213904e-04 1.025216348092438789e-03 9.275383648608608392e-05 2.723890880738021004e-04
5.352679638440462117e-04 9.174930782115180107e-04 1.033630819223440504e-04 2.770871888753933241e-04
4.887964958059820997e-04 8.137932688314123645e-04 1.114963275469256900e-04 2.774172051259774191e-04
4.402161843013987965e-04 7.149695579999488506e-04 1.165885927894399332e-04 2.733338792796306664e-04
3.906479719094531344e-04 6.217725552233530073e-04 1.182822534909875630e-04 2.649822443706630602e-04
3.411972336958534737e-04 5.348351609966479773e-04 1.164534621313993148e-04 2.526904819512841333e-04
2.929155786765779931e-04 4.546597810290882989e-04 1.112207878068658946e-04 2.369518037926411722e-04
2.467650399352805867e-04 3.816089332945452398e-04 1.029346961009496963e-04 2.183962432170179105e-04
2.035862002088718729e-04 3.158996543266600395e-04 9.214816815427563223e-05 1.977540353942740367e-04
1.640716662475062292e-04 2.576019990847160969e-04 7.957051290866685859e-05 1.758129704348934306e-04
1.287460971406473363e-04 2.066417995955205215e-04 6.600808103323427668e-05 1.533726510868786198e-04
9.795371635510129800e-05 1.628077057588393382e-04 5.229696487905739858e-05 1.311989200492455162e-04
7.185390587101916557e-05 1.257623823471820657e-04 3.923370473701434603e-05 1.099817979319646594e-04
5.042510864642789272e-05 9.505758512335365379e-05 2.751039373656854228e-05 9.030007055521046362e-05
3.347687080934447636e-05 7.015269231620709079e-05 1.766031230272135959e-05 7.259518732516799674e-05
2.066945766014804123e-05 5.043613172122983983e-05 1.001932470455220341e-05 5.715641080525249267e-05
1.154009892076702238e-05 3.524902452230499093e-05 4.706802172072755284e-06 4.411824615715567380e-05
5.534579586719164621e-06 2.391027016488013520e-05 1.627933724282178282e-06 3.347015353214945362e-05
2.042612597793303525e-06 1.574222706197355557e-05 4.971366854200970633e-07 2.507749678506202877e-05
4.352249802786060387e-07 1.009610534364626602e-05 8.801089185918911686e-07 1.871170410136919316e-05
1.022729386220129195e-07 6.376182756069430188e-06 2.250109948099788892e-06 1.408680290671278894e-05
4.881816884868584478e-07 4.061984231085873368e-06 4.052537819861323902e-06 1.089892251642809373e-05
1.124085407278383589e-06 2.727629106945403820e-06 5.770959420012878357e-06 8.865091738147864357e-06
1.654718703323387640e-06 2.057645468220653119e-06 6.987565813285545176e-06 7.757725480304818741e-06
1.858675091564173969e-06 1.858675091579778433e-06 7.431593018348684506e-06 7.431593018355183790e-06
